"Time (s) Run #1","Velocity, Red (m/s) Run #1","Velocity, Blue (m/s) Run #1","Time (s) Run #2","Velocity, Red (m/s) Run #2","Velocity, Blue (m/s) Run #2","Time (s) Run #3","Velocity, Red (m/s) Run #3","Velocity, Blue (m/s) Run #3","Time (s) Run #4","Velocity, Red (m/s) Run #4","Velocity, Blue (m/s) Run #4","Time (s) Run #5","Velocity, Red (m/s) Run #5","Velocity, Blue (m/s) Run #5"
0.050,0.027,0.000,0.050,0.001,0.000,0.050,0.000,0.000,0.050,0.015,0.000,0.050,0.022,0.000
0.100,0.007,0.000,0.100,0.005,0.000,0.100,0.000,0.000,0.100,0.015,0.000,0.100,0.023,0.000
0.150,-0.005,0.000,0.150,0.013,0.000,0.150,0.000,0.000,0.150,0.015,0.000,0.150,0.024,0.000
0.200,-0.008,0.000,0.200,0.026,0.000,0.200,0.000,0.000,0.200,0.014,0.000,0.200,0.025,0.000
0.250,-0.004,0.000,0.250,0.051,0.000,0.250,0.000,0.000,0.250,0.011,0.000,0.250,0.028,0.000
0.300,-0.001,0.000,0.300,0.102,0.000,0.300,0.000,0.000,0.300,0.007,0.000,0.300,0.037,0.000
0.350,-0.003,0.000,0.350,0.208,0.000,0.350,0.000,0.000,0.350,0.005,0.000,0.350,0.061,0.000
0.400,-0.005,0.000,0.400,0.391,0.000,0.400,0.000,0.000,0.400,0.012,0.000,0.400,0.114,0.000
0.450,-0.005,0.000,0.450,0.641,0.000,0.450,0.000,0.000,0.450,0.034,0.000,0.450,0.212,0.000
0.500,-0.005,0.000,0.500,0.903,0.000,0.500,0.000,0.000,0.500,0.082,0.000,0.500,0.354,0.000
0.550,-0.006,0.000,0.550,1.109,0.000,0.550,0.000,0.000,0.550,0.168,0.000,0.550,0.530,0.000
0.600,-0.004,0.000,0.600,1.221,0.000,0.600,0.000,0.000,0.600,0.298,0.000,0.600,0.720,0.000
0.650,-0.002,0.000,0.650,1.258,0.000,0.650,0.000,0.000,0.650,0.473,0.000,0.650,0.902,0.000
0.700,-0.005,0.000,0.700,1.262,0.000,0.700,0.000,0.000,0.700,0.679,0.000,0.700,1.046,0.000
0.750,-0.018,0.000,0.750,1.262,0.000,0.750,0.000,0.000,0.750,0.896,0.000,0.750,1.135,0.000
0.800,-0.033,0.000,0.800,1.261,0.000,0.800,0.000,0.000,0.800,1.087,0.000,0.800,1.173,0.000
0.850,-0.040,0.000,0.850,1.261,0.000,0.850,0.000,0.000,0.850,1.218,-4.042E-4,0.850,1.181,0.000
0.900,-0.038,0.000,0.900,1.260,0.000,0.900,0.000,0.000,0.900,1.283,-8.084E-4,0.900,1.181,0.000
0.950,-0.024,0.000,0.950,1.259,0.000,0.950,0.000,0.000,0.950,1.301,-8.084E-4,0.950,1.180,0.000
1.000,0.004,0.000,1.000,1.258,0.000,1.000,0.000,0.000,1.000,1.302,-4.042E-4,1.000,1.180,0.000
1.050,0.050,0.000,1.050,1.257,0.000,1.050,0.000,0.000,1.050,1.301,0.000,1.050,1.179,0.000
1.100,0.116,0.000,1.100,1.257,0.000,1.100,0.000,0.000,1.100,1.300,0.000,1.100,1.178,0.000
1.150,0.202,0.000,1.150,1.255,0.000,1.150,0.001,0.000,1.150,1.299,0.000,1.150,1.178,0.000
1.200,0.308,0.000,1.200,1.253,0.000,1.200,0.008,0.000,1.200,1.299,0.000,1.200,1.177,0.000
1.250,0.433,0.000,1.250,1.252,0.000,1.250,0.029,0.000,1.250,1.298,0.000,1.250,1.175,0.000
1.300,0.577,0.000,1.300,1.251,4.042E-4,1.300,0.074,0.000,1.300,1.298,0.000,1.300,1.175,0.000
1.350,0.739,0.000,1.350,1.200,0.061,1.350,0.164,0.000,1.350,1.296,0.000,1.350,1.173,0.000
1.400,0.895,0.000,1.400,0.960,0.314,1.400,0.320,0.000,1.400,1.294,4.042E-4,1.400,1.171,0.000
1.450,1.009,0.000,1.450,0.571,0.703,1.450,0.539,0.000,1.450,1.266,0.075,1.450,1.168,0.001
1.500,1.063,0.000,1.500,0.222,1.033,1.500,0.783,0.000,1.500,1.077,0.359,1.500,1.048,0.131
1.550,1.076,0.000,1.550,0.062,1.169,1.550,0.982,0.000,1.550,0.707,0.778,1.550,0.743,0.445
1.600,1.075,0.000,1.600,0.053,1.168,1.600,1.098,0.000,1.600,0.316,1.121,1.600,0.369,0.816
1.650,1.075,0.000,1.650,0.052,1.165,1.650,1.139,0.000,1.650,0.086,1.254,1.650,0.112,1.059
1.700,1.075,0.000,1.700,0.051,1.161,1.700,1.144,0.000,1.700,0.038,1.251,1.700,0.041,1.116
1.750,1.074,0.000,1.750,0.050,1.157,1.750,1.144,0.000,1.750,0.037,1.248,1.750,0.042,1.113
1.800,1.073,0.000,1.800,0.049,1.154,1.800,1.143,0.000,1.800,0.036,1.243,1.800,0.042,1.110
1.850,1.072,0.000,1.850,0.032,0.973,1.850,1.143,0.000,1.850,0.034,1.238,1.850,0.040,1.107
1.900,1.072,0.000,1.900,0.008,0.503,1.900,1.142,0.000,1.900,0.033,1.234,1.900,0.038,1.103
1.950,1.071,0.000,1.950,4.042E-4,-0.072,1.950,1.142,0.000,1.950,0.032,1.230,1.950,0.038,1.100
2.000,1.070,0.000,2.000,0.014,-0.458,2.000,1.142,0.000,2.000,0.023,1.097,2.000,0.038,1.096
2.050,1.068,0.000,2.050,0.034,-0.550,2.050,1.141,0.000,2.050,0.006,0.650,2.050,0.029,0.940
2.100,1.067,0.000,2.100,0.040,-0.537,2.100,1.141,0.000,2.100,-0.001,0.034,2.100,0.016,0.515
2.150,1.065,0.000,2.150,0.038,-0.532,2.150,1.140,0.000,2.150,0.009,-0.436,2.150,0.013,-0.023
2.200,1.064,0.000,2.200,0.037,-0.526,2.200,1.139,0.000,2.200,0.027,-0.588,2.200,0.025,-0.403
2.250,1.062,0.000,2.250,0.036,-0.514,2.250,1.138,0.000,2.250,0.036,-0.557,2.250,0.040,-0.512
2.300,1.045,0.019,2.300,0.034,-0.490,2.300,1.136,8.084E-4,2.300,0.034,-0.526,2.300,0.041,-0.508
2.350,0.872,0.195,2.350,0.032,-0.459,2.350,1.040,0.108,2.350,0.032,-0.491,2.350,0.036,-0.509
2.400,0.543,0.520,2.400,0.031,-0.425,2.400,0.760,0.398,2.400,0.029,-0.459,2.400,0.032,-0.506
2.450,0.215,0.837,2.450,0.030,-0.395,2.450,0.392,0.765,2.450,0.027,-0.433,2.450,0.032,-0.499
2.500,0.045,0.996,2.500,0.027,-0.367,2.500,0.119,1.024,2.500,0.026,-0.405,2.500,0.031,-0.487
2.550,0.030,1.005,2.550,0.025,-0.340,2.550,0.030,1.101,2.550,0.025,-0.376,2.550,0.029,-0.464
2.600,0.030,1.002,2.600,0.022,-0.314,2.600,0.031,1.099,2.600,0.025,-0.347,2.600,0.027,-0.432
2.650,0.028,1.000,,,,2.650,0.030,1.095,2.650,0.024,-0.320,2.650,0.025,-0.400
2.700,0.027,0.996,,,,2.700,0.030,1.093,2.700,0.023,-0.294,2.700,0.023,-0.371
2.750,0.027,0.993,,,,2.750,0.029,1.089,2.750,0.022,-0.267,2.750,0.022,-0.346
2.800,0.027,0.990,,,,2.800,0.028,1.087,2.800,0.022,-0.240,2.800,0.022,-0.319
2.850,0.027,0.987,,,,2.850,0.028,1.083,2.850,0.021,-0.212,,,
2.900,0.023,0.921,,,,2.900,0.027,1.080,2.900,0.021,-0.185,,,
2.950,0.010,0.604,,,,2.950,0.027,1.077,2.950,,-0.158,,,
3.000,0.001,0.108,,,,3.000,0.022,1.005,3.000,,-0.132,,,
3.050,0.005,-0.316,,,,3.050,0.008,0.660,,,,,,
3.100,0.017,-0.490,,,,3.100,-0.001,0.122,,,,,,
3.150,0.024,-0.483,,,,3.150,0.005,-0.332,,,,,,
3.200,0.023,-0.484,,,,3.200,0.019,-0.515,,,,,,
3.250,0.022,-0.485,,,,3.250,0.027,-0.507,,,,,,
3.300,0.021,-0.485,,,,3.300,0.024,-0.513,,,,,,
3.350,0.019,-0.485,,,,3.350,0.021,-0.515,,,,,,
3.400,0.019,-0.486,,,,3.400,0.021,-0.515,,,,,,
3.450,0.019,-0.487,,,,3.450,0.021,-0.517,,,,,,
3.500,0.019,-0.487,,,,3.500,0.022,-0.517,,,,,,
3.550,0.018,-0.487,,,,3.550,0.021,-0.517,,,,,,
3.600,0.016,-0.488,,,,3.600,0.021,-0.517,,,,,,
3.650,0.014,-0.489,,,,3.650,0.020,-0.517,,,,,,
3.700,0.012,-0.489,,,,3.700,0.019,-0.519,,,,,,
